"Freq [MHz]","mag(St(Rectangle3_T1,Rectangle3_T1)) []"
100,0.99408740159439
100.5,0.994104013072988
101,0.994120084629585
101.5,0.994135624494272
102,0.994150640731052
102.5,0.994165141241908
103,0.994179133770777
103.5,0.994192625907406
104,0.994205625091121
104.5,0.994218138614476
105,0.994230173626829
105.5,0.9942417371378
106,0.994252836020659
106.5,0.994263477015616
107,0.994273666733021
107.5,0.994283411656487
108,0.994292718145934
108.5,0.994301592440548
109,0.994310040661666
109.5,0.994318068815589
110,0.994325682796322
110.5,0.994332888388242
111,0.994339691268699
111.5,0.994346097010552
112,0.994352111084642
112.5,0.994357738862202
113,0.994362985617201
113.5,0.994367856528638
114,0.994372356682774
114.5,0.994376491075311
115,0.994380264613511
115.5,0.994383682118273
116,0.994386748326152
116.5,0.994389467891326
117,0.994391845387526
117.5,0.994393885309907
118,0.994395592076883
118.5,0.994396970031911
119,0.99439802344524
119.5,0.994398756515609
120,0.994399173371915
120.5,0.994399278074832
121,0.994399074618398
121.5,0.994398566931566
122,0.994397758879712
122.5,0.994396654266114
123,0.994395256833399
123.5,0.994393570264949
124,0.994391598186283
124.5,0.9943893441664
125,0.994386811719103
125.5,0.994384004304279
126,0.994380925329164
126.5,0.994377578149574
127,0.994373966071106
127.5,0.994370092350321
128,0.994365960195893
128.5,0.994361572769741
129,0.99435693318813
129.5,0.994352044522755
130,0.994346909801801
130.5,0.994341532010973
131,0.994335914094519
131.5,0.99433005895622
132,0.99432396946037
132.5,0.994317648432722
133,0.994311098661437
133.5,0.994304322897989
134,0.994297323858078
134.5,0.994290104222503
135,0.994282666638038
135.5,0.994275013718271
136,0.994267148044451
136.5,0.994259072166302
137,0.994250788602826
137.5,0.994242299843097
138,0.994233608347039
138.5,0.994224716546189
139,0.994215626844447
139.5,0.994206341618814
140,0.994196863220124
140.5,0.994187193973753
141,0.994177336180328
141.5,0.994167292116419
142,0.994157064035219
142.5,0.994146654167222
143,0.994136064720887
143.5,0.994125297883285
144,0.994114355820757
144.5,0.994103240679538
145,0.994091954586399
145.5,0.994080499649258
146,0.994068877957803
146.5,0.994057091584092
147,0.994045142583159
147.5,0.994033032993607
148,0.994020764838195
148.5,0.994008340124421
149,0.993995760845102
149.5,0.993983028978946
150,0.993970146491115
150.5,0.993957115333796
151,0.993943937446758
151.5,0.993930614757905
152,0.993917149183832
152.5,0.993903542630375
153,0.993889796993157
153.5,0.993875914158132
154,0.993861896002131
154.5,0.993847744393398
155,0.993833461192135
155.5,0.993819048251036
156,0.993804507415829
156.5,0.993789840525812
157,0.99377504941439
157.5,0.993760135909612
158,0.993745101834713
158.5,0.99372994900865
159,0.993714679246644
159.5,0.993699294360724
160,0.993683796160268
160.5,0.993668186452556
161,0.993652467043311
161.5,0.99363663973726
162,0.993620706338687
162.5,0.993604668651991
163,0.993588528482255
163.5,0.993572287635811
164,0.993555947920819
164.5,0.99353951114784
165,0.993522979130428
165.5,0.993506353685721
166,0.993489636635034
166.5,0.993472829804473
167,0.993455935025544
167.5,0.993438954135776
168,0.99342188897935
168.5,0.993404741407742
169,0.993387513280368
169.5,0.993370206465248
170,0.993352822839673
170.5,0.993335364290885
171,0.993317832716776
171.5,0.993300230026587
172,0.99328255814163
172.5,0.993264818996019
173,0.993247014537419
173.5,0.993229146727801
174,0.993211217544227
174.5,0.993193228979635
175,0.993175183043655
175.5,0.993157081763432
176,0.993138927184475
176.5,0.993120721371522
177,0.993102466409424
177.5,0.993084164404049
178,0.993065817483216
178.5,0.993047427797638
179,0.9930289975219
179.5,0.993010528855455
180,0.992992024023651
180.5,0.992973485278776
181,0.992954914901138
181.5,0.99293631520017
182,0.992917688515566
182.5,0.992899037218444
183,0.99288036371255
183.5,0.992861670435479
184,0.992842959859951
184.5,0.992824234495104
185,0.992805496887832
185.5,0.992786749624167
186,0.992767995330687
186.5,0.992749236675975
187,0.99273047637212
187.5,0.992711717176258
188,0.992692961892161
188.5,0.992674213371873
189,0.992655474517397
189.5,0.992636748282425
190,0.992618037674134
190.5,0.992599345755019
191,0.992580675644797
191.5,0.992562030522361
192,0.992543413627794
192.5,0.992524828264447
193,0.992506277801079
193.5,0.992487765674061
194,0.992469295389653
194.5,0.992450870526343
195,0.992432494737263
195.5,0.992414171752676
196,0.992395905382541
196.5,0.992377699519151
197,0.992359558139856
197.5,0.992341485309863
198,0.992323485185121
198.5,0.992305562015292
199,0.99228772014681
199.5,0.992269964026021
200,0.992252298202423
200.5,0.99223472733199
201,0.992217256180592
201.5,0.992199889627504
202,0.992182632669011
202.5,0.992165490422106
203,0.992148468128284
203.5,0.992131571157423
204,0.992114805011757
204.5,0.992098175329943
205,0.992081687891213
205.5,0.9920653486196
206,0.992049163588261
206.5,0.992033139023851
207,0.992017281310979
207.5,0.992001596996715
208,0.991986092795142
208.5,0.991970775591952
209,0.991955652449052
209.5,0.991940730609181
210,0.99192601750051
210.5,0.991911520741203
211,0.991897248143916
211.5,0.991883207720192
212,0.991869407684735
212.5,0.991855856459502
213,0.99184256267758
213.5,0.991829535186779
214,0.991816783052901
214.5,0.991804315562576
215,0.991792142225627
215.5,0.991780272776821
216,0.991768717176937
216.5,0.991757485613003
217,0.991746588497552
217.5,0.991736036466758
218,0.99172584037724
218.5,0.991716011301318
219,0.991706560520484
219.5,0.991697499516796
220,0.991688839961863
220.5,0.991680593703048
221,0.991672772746466
221.5,0.99166538923626
222,0.991658455429608
222.5,0.991651983666785
223,0.991645986335534
223.5,0.991640475828873
224,0.991635464495327
224.5,0.991630964580428
225,0.991626988158144
225.5,0.991623547050665
226,0.991620652734775
226.5,0.991618316232685
227,0.991616547984932
227.5,0.991615357702493
228,0.991614754194844
228.5,0.99161474517011
229,0.991615337002828
229.5,0.991616534464064
230,0.991618340407724
230.5,0.991620755405833
231,0.991623777324247
231.5,0.991627400828762
232,0.991631616809757
232.5,0.9916364117113
233,0.991641766748037
233.5,0.991647656990032
234,0.991654050291874
234.5,0.991660906037785
235,0.991668173668819
235.5,0.99167579095143
236,0.991683681938334
236.5,0.991691754562366
237,0.991699897791455
237.5,0.991707978257349
238,0.991715836251531
238.5,0.991723280957903
239,0.991730084762141
239.5,0.991735976440356
240,0.991740632983007
240.5,0.991743669750962
241,0.991744628585865
241.5,0.991742963401812
242,0.991738022663665
242.5,0.991729028001069
243,0.991715048005596
243.5,0.991694965996874
244,0.991667440202782
244.5,0.991630854352373
245,0.991583256092616
245.5,0.991522279862621
246,0.991445049825472
246.5,0.991348057077025
247,0.991227003498072
247.5,0.99107660211975
248,0.990890320496842
248.5,0.990660049010454
249,0.990375669820616
249.5,0.990024493796191
250,0.989590521451041
250.5,0.9890534688793
251,0.988387480098387
251.5,0.987559422699653
252,0.986526635355369
252.5,0.985233968445173
253,0.983609946782059
253.5,0.981561920101039
254,0.978970228808771
254.5,0.97568185975988
255,0.971505113542346
255.5,0.966209003086736
256,0.959535232716823
256.5,0.951237153078182
257,0.94116714620117
257.5,0.929432014170771
258,0.916602150911869
258.5,0.903869988889294
259,0.892946232307257
259.5,0.885538541665625
260,0.88261991387682
260.5,0.884032138671899
261,0.888727642259578
261.5,0.895363072416458
262,0.902779094992515
262.5,0.910185802014872
263,0.917138175812749
263.5,0.923436003576664
264,0.929026740468698
264.5,0.933936021821084
265,0.938224927867319
265.5,0.941966199174527
266,0.945232125589631
266.5,0.948089053919604
267,0.950595420253244
267.5,0.952801542072921
268,0.95475021089546
268.5,0.95647758573629
269,0.958014139904909
269.5,0.959385547906651
270,0.96061346848817
270.5,0.96171621411051
271,0.96270931291175
271.5,0.963605975502359
272,0.964417480513914
272.5,0.965153492215737
273,0.965822322020903
273.5,0.966431143967188
274,0.966986172581338
274.5,0.967492810041057
275,0.967955768274589
275.5,0.968379170577527
276,0.968766636457617
276.5,0.969121352712889
277,0.969446133178705
277.5,0.969743469120457
278,0.970015571879497
278.5,0.970264409082815
279,0.970491735487736
279.5,0.970699119339823
280,0.97088796496611
280.5,0.971059532199225
281,0.971214953125199
281.5,0.971355246563928
282,0.971481330622748
282.5,0.971594033607495
283,0.971694103529188
283.5,0.971782216406425
284,0.971858983532086
284.5,0.971924957846769
285,0.971980639539673
285.5,0.972026480979423
286,0.97206289106221
286.5,0.97209023905178
287,0.972108857975123
287.5,0.972119047628595
288,0.972121077241573
288.5,0.972115187838184
289,0.972101594332113
289.5,0.972080487384789
290,0.972052035053136
290.5,0.972016384249654
291,0.971973662034569
291.5,0.971923976757223
292,0.971867419061641
292.5,0.971804062769252
293,0.971733965650095
293.5,0.971657170092313
294,0.971573703678507
294.5,0.971483579676313
295,0.971386797449643
295.5,0.971283342796056
296,0.971173188215023
296.5,0.971056293111033
297,0.970932603934959
297.5,0.970802054266423
298,0.970664564839428
298.5,0.970520043513028
299,0.970368385188313
299.5,0.970209471672613
300,0.970043171491383
300.5,0.969869339647871
301,0.969687817330261
301.5,0.969498431565663
302,0.969300994819917
302.5,0.969095304541854
303,0.968881142650254
303.5,0.968658274961396
304,0.968426450554697
304.5,0.968185401073543
305,0.967934839957989
305.5,0.967674461605559
306,0.967403940455927
306.5,0.967122929994733
307,0.966831061671271
307.5,0.966527943724178
308,0.966213159908664
308.5,0.965886268118082
309,0.965546798891973
309.5,0.965194253801812
310,0.96482810370488
310.5,0.964447786855651
311,0.964052706863038
311.5,0.963642230480657
312,0.963215685215945
312.5,0.962772356742572
313,0.962311486098948
313.5,0.961832266653898
314,0.961333840818612
314.5,0.960815296481814
315,0.960275663142679
315.5,0.959713907713373
316,0.959128929960075
316.5,0.958519557548058
317,0.957884540652673
317.5,0.95722254609396
318,0.956532150947998
318.5,0.955811835582903
319,0.955059976061661
319.5,0.954274835847441
320,0.953454556739809
320.5,0.952597148962107
321,0.951700480311098
321.5,0.950762264269698
322,0.949780046972069
322.5,0.948751192897314
323,0.947672869153362
323.5,0.946542028196177
324,0.945355388810759
324.5,0.944109415159515
325,0.942800293679898
325.5,0.941423907586567
326,0.939975808703286
326.5,0.938451186315839
327,0.936844832699086
327.5,0.9351511049282
328,0.933363882535696
328.5,0.931476520521408
329,0.92948179716139
329.5,0.927371855993262
330,0.925138141278917
330.5,0.922771326160338
331,0.920261232629674
331.5,0.917596742330498
332,0.91476569709293
332.5,0.911754787981337
333,0.908549431500266
333.5,0.905133631463765
334,0.901489824888036
334.5,0.897598710121915
335,0.893439055290853
335.5,0.888987485007921
336,0.884218243214598
336.5,0.87910292997517
337,0.873610210090479
337.5,0.867705491558938
338,0.861350572249155
338.5,0.854503253731604
339,0.847116922143068
339.5,0.839140097353523
340,0.830515953735342
340.5,0.821181818708772
341,0.811068659218564
341.5,0.800100571706179
342,0.788194298361524
342.5,0.7752588019006
343,0.761194943280708
343.5,0.745895322069107
344,0.729244357947909
344.5,0.71111871413592
345,0.691388188942614
345.5,0.66991722911093
346,0.646567245884142
346.5,0.621199938404208
347,0.593681844476272
347.5,0.563890340985045
348,0.531721302832979
348.5,0.497098606757062
349,0.459985665346762
349.5,0.420399285704968
350,0.37842659646559
350.5,0.334247173590884
351,0.28816647801607
351.5,0.240678437702506
352,0.192612714094963
352.5,0.145560478072668
353,0.103333964842981
353.5,0.076666545603436
354,0.0830115650749371
354.5,0.116658788315151
355,0.160389539343734
355.5,0.206780571541895
356,0.253179206888782
356.5,0.298422795712064
357,0.341903791179279
357.5,0.383278653478797
358,0.422357602709701
358.5,0.459053035291225
359,0.493349892787061
359.5,0.525285629586423
360,0.554935255982863
360.5,0.582399660883835
361,0.607796403327834
361.5,0.631252516690227
362,0.652898995560872
362.5,0.672866684212229
363,0.691283313643999
363.5,0.708271460167517
364,0.723947226643919
364.5,0.738419477071077
365,0.751789484325751
365.5,0.764150877866339
366,0.775589802072608
366.5,0.786185216217496
367,0.796009283841552
367.5,0.805127812806991
368,0.813600717954316
368.5,0.821482486521132
369,0.828822632747904
369.5,0.835666132784398
370,0.842053834462139
370.5,0.848022838994589
371,0.853606853435383
371.5,0.85883651394702
372,0.863739680748652
372.5,0.868341706130837
373,0.872665677229943
373.5,0.876732635407482
374,0.880561774126353
374.5,0.88417061719109
375,0.887575179147505
375.5,0.890790109536806
376,0.893828822582917
376.5,0.896703613768496
377,0.899425764630982
377.5,0.902005636989056
378,0.904452757694753
378.5,0.906775894898507
379,0.908983126714585
379.5,0.911081903082793
380,0.913079101538967
380.5,0.914981077531333
381,0.916793709851779
381.5,0.91852244169003
382,0.920172317763974
382.5,0.921748017930516
383,0.923253887637652
383.5,0.924693965539614
384,0.926072008562262
384.5,0.927391514675086
385,0.928655743598792
385.5,0.929867735653033
386,0.931030328927185
386.5,0.932146174937794
387,0.93321775291913
387.5,0.934247382878082
388,0.935237237530988
388.5,0.936189353227922
389,0.937105639959182
389.5,0.937987890529111
390,0.938837788973786
390.5,0.939656918291495
391,0.940446767548054
391.5,0.941208738412917
392,0.941944151176558
392.5,0.942654250294713
393,0.943340209500684
393.5,0.944003136522964
394,0.944644077441916
394.5,0.945264020716083
395,0.94586390090583
395.5,0.946444602119469
396,0.947006961204714
396.5,0.94755177070622
397,0.948079781608104
397.5,0.948591705878623
398,0.949088218832685
398.5,0.949569961326482
399,0.95003754179726
399.5,0.950491538160154
400,0.950932499572948
400.5,0.951360948078736
401,0.951777380135574
401.5,0.95218226804151
402,0.952576061262632
402.5,0.952959187671185
403,0.953332054700252
403.5,0.953695050420928
404,0.95404854454753
404.5,0.954392889375911
405,0.95472842065959
405.5,0.95505545842808
406,0.955374307751491
406.5,0.955685259455196
407,0.955988590788163
407.5,0.956284566048269
408,0.956573437167813
408.5,0.95685544426223
409,0.957130816144894
409.5,0.957399770810798
410,0.957662515891779
410.5,0.957919249085935
411,0.958170158563751
411.5,0.958415423353494
412,0.95865521370834
412.5,0.958889691457725
413,0.959119010345368
413.5,0.959343316356437
414,0.959562748036292
414.5,0.959777436803253
415,0.959987507257795
415.5,0.960193077490545
416,0.960394259391408
416.5,0.960591158962034
417,0.960783876633736
417.5,0.960972507592817
418,0.961157142115011
418.5,0.96133786591054
419,0.961514760480908
419.5,0.961687903488228
420,0.961857369137374
420.5,0.962023228570802
421,0.962185550275267
421.5,0.962344400499088
422,0.962499843677918
422.5,0.962651942866336
423,0.962800760171858
423.5,0.962946357187291
424,0.963088795416764
424.5,0.963228136690158
425,0.963364443560243
425.5,0.963497779676482
426,0.963628210129305
426.5,0.963755801758659
427,0.96388062342089
427.5,0.96400274620841
428,0.964122243617279
428.5,0.964239191658695
429,0.964353668911422
429.5,0.964465756513423
430,0.964575538092291
430.5,0.96468309963549
431,0.964788529302888
431.5,0.964891917185405
432,0.964993355015001
432.5,0.965092935832324
433,0.965190753619355
433.5,0.965286902905131
434,0.96538147835309
434.5,0.965474574338834
435,0.965566284526989
435.5,0.96565670145558
436,0.96574591613571
436.5,0.96583401767362
437,0.965921092921217
437.5,0.966007226160144
438,0.966092498823306
438.5,0.966176989256638
439,0.966260772522735
439.5,0.966343920246921
440,0.966426500505293
440.5,0.966508577753457
441,0.966590212793858
441.5,0.966671462779045
442,0.966752381247724
442.5,0.966833018190103
443,0.966913420138872
443.5,0.966993630282037
444,0.967073688593877
444.5,0.967153631980388
445,0.967233494435762
445.5,0.967313307206685
446,0.967393098961511
446.5,0.967472895961673
447,0.967552722232994
447.5,0.967632599734898
448,0.9677125485258
448.5,0.967792586923275
449,0.967872731657882
449.5,0.967952998019743
450,0.968033399997256
450.5,0.968113950407486
451,0.968194661017975
451.5,0.968275542659871
452,0.968356605332389
452.5,0.968437858298743
453,0.968519310173764
453.5,0.968600969003502
454,0.968682842337131
454.5,0.968764937291564
455,0.968847260609155
455.5,0.968929818708927
456,0.969012617731744
456.5,0.969095663579836
457,0.969178961951125
457.5,0.969262518368722
458,0.969346338205999
458.5,0.969430426707609
459,0.96951478900679
459.5,0.96959943013929
460,0.969684355054217
460.5,0.969769568622089
461,0.969855075640352
461.5,0.969940880836604
462,0.970026988869734
462.5,0.970113404329189
463,0.97020013173252
463.5,0.970287175521402
464,0.970374540056231
464.5,0.970462229609453
465,0.970550248357725
465.5,0.970638600372999
466,0.970727289612619
466.5,0.970816319908504
467,0.970905694955464
467.5,0.970995418298721
468,0.971085493320647
468.5,0.971175923226771
469,0.971266711031081
469.5,0.971357859540605
470,0.971449371339323
470.5,0.971541248771379
471,0.971633493923607
471.5,0.971726108607347
472,0.971819094339554
472.5,0.971912452323165
473,0.97200618342671
473.5,0.972100288163126
474,0.972194766667759
474.5,0.972289618675499
475,0.972384843497019
475.5,0.972480439994062
476,0.972576406553745
476.5,0.972672741061797
477,0.972769440874715
477.5,0.972866502790733
478,0.972963923019577
478.5,0.973061697150912
479,0.973159820121424
479.5,0.973258286180444
480,0.973357088854051
480.5,0.973456220907552
481,0.973555674306251
481.5,0.973655440174423
482,0.973755508752367
482.5,0.973855869351459
483,0.973956510307063
483.5,0.974057418929208
484,0.974158581450882
484.5,0.974259982973823
485,0.974361607411661
485.5,0.974463437430269
486,0.974565454385149
486.5,0.974667638255713
487,0.974769967576262
487.5,0.974872419363488
488,0.974974969040306
488.5,0.975077590355793
489,0.975180255301042
489.5,0.975282934020673
490,0.975385594719773
490.5,0.975488203565992
491,0.97559072458654
491.5,0.975693119559773
492,0.975795347901068
492.5,0.975897366542664
493,0.975999129807118
493.5,0.976100589274005
494,0.976201693639482
494.5,0.976302388568288
495,0.976402616537758
495.5,0.976502316673366
496,0.976601424575317
496.5,0.976699872135657
497,0.976797587345333
497.5,0.976894494090625
498,0.976990511938306
498.5,0.977085555908865
499,0.977179536237076
499.5,0.977272358119153
500,0.977363921445681
500.5,0.977454120519474
501,0.977542843757426
501.5,0.97762997337539
502,0.97771538505505
502.5,0.977798947591666
503,0.977880522521525
503.5,0.977959963727845
504,0.978037117023761
504.5,0.978111819711012
505,0.978183900112766
505.5,0.978253177078977
506,0.978319459462532
506.5,0.97838254556435
507,0.978442222545435
507.5,0.978498265803804
508,0.97855043831401
508.5,0.978598489926891
509,0.978642156626931
509.5,0.978681159744547
510,0.978715205120322
510.5,0.978743982218091
511,0.978767163183512
511.5,0.978784401844565
512,0.978795332650149
512.5,0.978799569542696
513,0.978796704760447
513.5,0.978786307564707
514,0.978767922887124
514.5,0.978741069891623
515,0.978705240445335
515.5,0.978659897492406
516,0.978604473324197
516.5,0.978538367738913
517,0.978460946083225
517.5,0.978371537167965
518,0.978269431049405
518.5,0.978153876667082
519,0.978024079328487
519.5,0.977879198030352
520,0.977718342605501
520.5,0.977540570683587
521,0.977344884453218
521.5,0.977130227212186
522,0.976895479691683
522.5,0.976639456139476
523,0.97636090014609
523.5,0.976058480197105
524,0.975730784933639
524.5,0.97537631810208
525,0.97499349317306
525.5,0.974580627608587
526,0.974135936755152
526.5,0.973657527339569
527,0.97314339054317
527.5,0.972591394629006
528,0.971999277095646
528.5,0.971364636330321
529,0.97068492273329
529.5,0.969957429284726
530,0.969179281524923
530.5,0.968347426918428
531,0.967458623572852
531.5,0.96650942828357
532,0.965496183876579
532.5,0.964415005823309
533,0.963261768103532
533.5,0.962032088295659
534,0.960721311877937
534.5,0.959324495729441
535,0.957836390826688
