"Freq [MHz]","mag(St(Rectangle3_T1,Rectangle3_T1)) []"
100,0.999532260505285
100.5,0.999528569512339
101,0.99952449088313
101.5,0.999520016752657
102,0.999515139117701
102.5,0.999509849833291
103,0.999504140609062
103.5,0.999498003005493
104,0.99949142843004
104.5,0.999484408133141
105,0.999476933204094
105.5,0.99946899456682
106,0.999460582975473
106.5,0.999451689009931
107,0.999442303071135
107.5,0.999432415376283
108,0.999422015953872
108.5,0.999411094638585
109,0.999399641066011
109.5,0.999387644667201
110,0.999375094663045
110.5,0.999361980058477
111,0.999348289636485
111.5,0.999334011951931
112,0.999319135325172
112.5,0.999303647835477
113,0.999287537314222
113.5,0.999270791337869
114,0.999253397220716
114.5,0.999235342007408
115,0.999216612465196
115.5,0.999197195075952
116,0.999177076027908
116.5,0.999156241207129
117,0.999134676188699
117.5,0.999112366227613
118,0.999089296249359
118.5,0.999065450840199
119,0.999040814237098
119.5,0.999015370317338
120,0.998989102587758
120.5,0.998961994173648
121,0.998934027807243
121.5,0.998905185815839
122,0.998875450109497
122.5,0.998844802168315
123,0.998813223029273
123.5,0.99878069327261
124,0.998747193007734
124.5,0.998712701858637
125,0.998677198948797
125.5,0.99864066288556
126,0.998603071743951
126.5,0.998564403049934
127,0.998524633763061
127.5,0.998483740258515
128,0.998441698308499
128.5,0.99839848306297
129,0.998354069029667
129.5,0.998308430053429
130,0.998261539294755
130.5,0.998213369207588
131,0.998163891516289
131.5,0.998113077191764
132,0.998060896426715
132.5,0.998007318609986
133,0.997952312299942
133.5,0.997895845196879
134,0.997837884114392
134.5,0.997778394949678
135,0.997717342652722
135.5,0.997654691194327
136,0.997590403532924
136.5,0.997524441580139
137,0.997456766165035
137.5,0.997387336996996
138,0.997316112627181
138.5,0.997243050408506
139,0.997168106454064
139.5,0.997091235593948
140,0.997012391330387
140.5,0.996931525791131
141,0.996848589681014
141.5,0.996763532231604
142,0.996676301148875
142.5,0.996586842558802
143,0.996495100950792
143.5,0.996401019118861
144,0.996304538100459
144.5,0.996205597112828
145,0.996104133486804
145.5,0.996000082597934
146,0.995893377794798
146.5,0.995783950324407
147,0.995671729254558
147.5,0.995556641392987
148,0.995438611203211
148.5,0.995317560716876
149,0.995193409442476
149.5,0.995066074270274
150,0.994935469373245
150.5,0.994801506103877
151,0.994664092886627
151.5,0.994523135105834
152,0.994378534988897
152.5,0.99423019148448
153,0.994078000135534
153.5,0.993921852946881
154,0.993761638247124
154.5,0.993597240544607
155,0.99342854037716
155.5,0.993255414155333
156,0.993077733998821
156.5,0.992895367565755
157,0.992708177874533
157.5,0.99251602311784
158,0.99231875646849
158.5,0.992116225876702
159,0.991908273858413
159.5,0.991694737274209
160,0.991475447098418
160.5,0.991250228177916
161,0.991018898980158
161.5,0.990781271329911
162,0.990537150134183
162.5,0.990286333094757
163,0.990028610407775
163.5,0.989763764449744
164,0.989491569449325
164.5,0.989211791144244
165,0.988924186422615
165.5,0.988628502947948
166,0.988324478767075
166.5,0.988011841900201
167,0.987690309912239
167.5,0.987359589464561
168,0.987019375846262
168.5,0.98666935248399
169,0.986309190429356
169.5,0.985938547822913
170,0.985557069333618
170.5,0.985164385572705
171,0.984760112480798
171.5,0.984343850687103
172,0.983915184839434
172.5,0.983473682903826
173,0.983018895432431
173.5,0.982550354798353
174,0.982067574396051
174.5,0.981570047805909
175,0.981057247921547
175.5,0.980528626038391
176,0.979983610902057
176.5,0.979421607715044
177,0.978841997100241
177.5,0.978244134019769
178,0.977627346647682
178.5,0.976990935195069
179,0.976334170686179
179.5,0.975656293684192
180,0.974956512965405
180.5,0.974234004140647
181,0.973487908222903
181.5,0.972717330140271
182,0.971921337193575
182.5,0.971098957458198
183,0.97024917812996
183.5,0.969370943815236
184,0.968463154765846
184.5,0.967524665059786
185,0.966554280729322
185.5,0.965550757838651
186,0.964512800514033
186.5,0.963439058930129
187,0.962328127257223
187.5,0.961178541575129
188,0.959988777760784
188.5,0.958757249358003
189,0.957482305439438
189.5,0.956162228472652
190,0.954795232204257
190.5,0.953379459578432
191,0.951912980708736
191.5,0.950393790925119
192,0.948819808921304
192.5,0.947188875031459
193,0.945498749669155
193.5,0.943747111966239
194,0.941931558654311
194.5,0.940049603237132
195,0.938098675508502
195.5,0.936076121476953
196,0.933979203766075
196.5,0.931805102567434
197,0.929550917231876
197.5,0.927213668594562
198,0.92479030213934
198.5,0.922277692119019
199,0.919672646759718
199.5,0.916971914689708
200,0.91417219274585
200.5,0.911270135323868
201,0.908262365451983
201.5,0.905145487780675
202,0.901916103694295
202.5,0.898570828762426
203,0.895106312759951
203.5,0.891519262494025
204,0.887806467683063
204.5,0.883964830136406
205,0.879991396482843
205.5,0.875883394690266
206,0.871638274606481
206.5,0.867253752730874
207,0.862727861396961
207.5,0.858059002504978
208,0.853246005889845
208.5,0.848288192341187
209,0.843185441206697
209.5,0.837938262406161
210,0.832547872559166
210.5,0.827016274783541
211,0.821346341552833
211.5,0.815541899809257
212,0.809607817314034
212.5,0.803550088981184
213,0.797375921686711
213.5,0.791093815776864
214,0.784713641223386
214.5,0.778246706098587
215,0.771705814779802
215.5,0.765105313054607
216,0.758461117101278
216.5,0.751790723181744
217,0.745113194827624
217.5,0.738449124346012
218,0.73182056564347
218.5,0.725250935686418
219,0.718764882403625
219.5,0.712388117506897
220,0.706147213567337
220.5,0.700069365734802
221,0.694182119712248
221.5,0.688513068964481
222,0.683089525604541
222.5,0.677938170894955
223,0.673084692743011
223.5,0.668553418862994
224,0.664366955320494
224.5,0.660545840861577
225,0.657108227670952
225.5,0.65399560588497
226,0.65130254160641
226.5,0.649037077205395
227,0.647204034994989
227.5,0.645804974230872
228,0.644838213321438
228.5,0.644298915726857
229,0.644179235522416
229.5,0.644468516354274
230,0.645153535662671
230.5,0.646218784686826
231,0.647646773948377
231.5,0.649418353637169
232,0.651513038549336
232.5,0.653909327868892
233,0.656585011028582
233.5,0.659517452004082
234,0.662683845549788
234.5,0.66606143993302
235,0.669627721520731
235.5,0.673360556960631
236,0.677238288487481
236.5,0.681239776819485
237,0.685344383807963
237.5,0.689531882855783
238,0.693782278106656
238.5,0.69807550177217
239,0.702390939605849
239.5,0.706706701845616
240,0.710998500518273
240.5,0.715237893959073
241,0.719389476636851
241.5,0.72340624742327
242,0.727221715515703
242.5,0.730735939623193
243,0.733789846380857
243.5,0.736116091407207
244,0.737241927501879
244.5,0.736296195421024
245,0.731661101541493
245.5,0.720670330779944
246,0.701580935787632
246.5,0.684381433010267
247,0.691633985730228
247.5,0.716736921439999
248,0.739732894944778
248.5,0.756223020557867
249,0.767992918573722
249.5,0.776871117258808
250,0.78397239542628
250.5,0.789920421825066
251,0.795056909524298
251.5,0.799558229435173
252,0.803490683075779
252.5,0.806827249004124
253,0.809432098924194
253.5,0.811001802887333
254,0.81092261642006
254.5,0.807930673185198
255,0.799251990985991
255.5,0.778250296557421
256,0.727858147641138
256.5,0.609317252203106
257,0.440173546318766
257.5,0.506254429079573
258,0.648503083463562
258.5,0.728299965987443
259,0.771087439477227
259.5,0.796469509481904
260,0.813187035968599
260.5,0.825221807945231
261,0.834558187088862
261.5,0.842306120983606
262,0.849217715296073
262.5,0.856051339426268
263,0.86424316910119
263.5,0.878915444845166
264,0.929067874757347
264.5,0.902579198353086
265,0.864432449367348
265.5,0.85700414772217
266,0.846234768997951
266.5,0.80905749146023
267,0.643721450732262
267.5,0.639434910318401
268,0.750226513684614
268.5,0.762656317663805
269,0.734240374151517
269.5,0.67284128318468
270,0.592805127516494
270.5,0.554971376925242
271,0.600021420329962
271.5,0.673412583423647
272,0.733055843429049
272.5,0.774286444253849
273,0.802179677677335
273.5,0.821411243240279
274,0.835050350399848
274.5,0.845007661924834
275,0.852514103150318
275.5,0.858456272389684
276,0.863638566444587
276.5,0.869080488385074
277,0.876476863810238
277.5,0.888735954798082
278,0.908636205025992
278.5,0.930078254934831
279,0.936291392646281
279.5,0.927136748252659
280,0.914286760666325
280.5,0.90282841982878
281,0.89321651004986
281.5,0.884887268702833
282,0.87729610952275
282.5,0.870061965668776
283,0.862936852428188
283.5,0.85576271748531
284,0.848440525556277
284.5,0.840910622489077
285,0.8331405408245
285.5,0.825117337144954
286,0.816842630944187
286.5,0.808329247880161
287,0.799598816044192
287.5,0.790679928226781
288,0.787786114485174
288.5,0.78467973414839
289,0.781350773784296
289.5,0.777788866174701
290,0.773983300336038
290.5,0.769923035954199
291,0.765596722864117
291.5,0.7609927262544
292,0.756099158324441
292.5,0.75090391716396
293,0.74539473366089
293.5,0.739559227270098
294,0.733384971489936
294.5,0.726859569892713
295,0.71997074353563
295.5,0.712706430536896
296,0.705054898534384
296.5,0.697004870648178
297,0.688545665441291
297.5,0.679667351213339
298,0.670360914770069
298.5,0.660618444589473
299,0.650433328057425
299.5,0.639800462180155
300,0.628716476909159
300.5,0.61717996995214
301,0.605191751712258
301.5,0.59275509882293
302,0.579876014657684
302.5,0.566563495229476
303,0.552829799090766
303.5,0.538690720246086
304,0.524165863734119
304.5,0.509278924464463
305,0.494057971134022
305.5,0.478535738611531
306,0.462749934049334
306.5,0.446743564094714
307,0.430565292787226
307.5,0.414269841778193
308,0.397918445932134
308.5,0.381579377398838
309,0.365328548642071
309.5,0.349250197749058
310,0.333437644737625
310.5,0.317994081433315
311,0.30303331448576
311.5,0.288680315326444
312,0.275071338006674
312.5,0.262353248084445
313,0.250681580758585
313.5,0.240216760048894
314,0.23111794691329
314.5,0.223534256374264
315,0.217593683829035
315.5,0.213390973765536
316,0.210976578515853
316.5,0.210349298258229
317,0.211454711425144
317.5,0.214190075710726
318,0.218414583274416
318.5,0.223962539335839
319,0.230656732792428
319.5,0.23831989091782
320,0.246783148792599
320.5,0.255891407187003
321,0.265506042208005
321.5,0.27550565886146
322,0.285785565576194
322.5,0.296256516156278
323,0.306843108803962
323.5,0.317482094040324
324,0.328120739383441
324.5,0.338715327597067
325,0.349229820378665
325.5,0.35963469292279
326,0.369905930540255
326.5,0.380024171804778
327,0.389973980410034
327.5,0.399743228056062
328,0.40932257202823
328.5,0.41870501297544
329,0.427885520344267
329.5,0.43686071477998
330,0.445628598472753
330.5,0.454188325877771
331,0.462540008474407
331.5,0.470684548270125
332,0.478623495623672
332.5,0.486358927684414
333,0.493893344343875
333.5,0.501229579092621
334,0.50837072258826
334.5,0.515320057083834
335,0.522081000152521
335.5,0.528657056384788
336,0.535051775936513
336.5,0.541268718977702
337,0.547311425237512
337.5,0.553183387966435
338,0.558888031745114
338.5,0.564428693664111
339,0.569808607482969
339.5,0.575030890452238
340,0.580098532550512
340.5,0.585014387951706
341,0.589781168596836
341.5,0.594401439800511
342,0.598877617875996
342.5,0.603211969814317
343,0.607406615102788
343.5,0.611463529816031
344,0.615384553157656
344.5,0.619171396671752
345,0.622825656378683
345.5,0.626348828116792
346,0.629742326387251
346.5,0.633007506999565
347,0.63614569379513
347.5,0.639158209680429
348,0.642046412123684
348.5,0.644811733152959
349,0.647455723733979
349.5,0.649980102197525
350,0.652386806126871
350.5,0.654933917229462
351,0.657389216492045
351.5,0.659755172412672
352,0.662034309705333
352.5,0.66422920511951
353,0.666342483754377
353.5,0.668376815843973
354,0.670334913987842
354.5,0.672219530799741
355,0.674033456945347
355.5,0.675779519538087
356,0.677460580860578
356.5,0.679079537377398
357,0.680639319003136
357.5,0.682142888587901
358,0.683593241580553
358.5,0.68499340582798
359,0.686346441466771
359.5,0.687655440861478
360,0.688923528541587
360.5,0.69015386108712
361,0.691349626910576
361.5,0.692514045880838
362,0.693650368732515
362.5,0.694761876202325
363,0.695851877832341
363.5,0.696923710378511
364,0.697980735761799
364.5,0.699026338498725
365,0.700063922548139
365.5,0.701096907511815
366,0.702128724128162
366.5,0.703162809000949
367,0.704202598508839
367.5,0.705251521846656
368,0.706312993155864
368.5,0.707390402709999
369,0.708487107130567
369.5,0.709606418620616
370,0.710751593216657
370.5,0.711925818074862
371,0.713132197824611
371.5,0.714373740041205
372,0.71565333990985
372.5,0.716973764174614
373,0.718337634488503
373.5,0.719747410303895
374,0.721205371465584
374.5,0.722713600691256
375,0.724273966145549
375.5,0.72588810433335
376,0.727557403554839
376.5,0.729282988178303
377,0.73106570399613
377.5,0.732906104933995
378,0.734804441382407
378.5,0.736760650412964
379,0.738774348128581
379.5,0.740844824377262
380,0.742971040032819
380.5,0.745151627013441
381,0.747384891170664
381.5,0.749668818137693
382,0.752001082178277
382.5,0.754379058026267
383,0.756799835653127
383.5,0.75926023784725
384,0.761756840436546
384.5,0.764285994935809
385,0.7668438533544
385.5,0.769426394859062
386,0.772029453952485
386.5,0.774648749801498
387,0.777279916330228
387.5,0.779918532683723
388,0.782560153666526
388.5,0.785200339768356
389,0.787834686405045
389.5,0.790458852026448
390,0.79306858477335
390.5,0.795659747401297
391,0.798228340229622
391.5,0.800770521917402
392,0.803282627913337
392.5,0.805761186472412
393,0.808202932177278
393.5,0.81060481694575
394,0.812964018546397
394.5,0.815277946681431
395,0.817544246729058
395.5,0.819760801265987
396,0.821925729514441
396.5,0.824037384876773
397,0.826094350734749
397.5,0.828095434699819
398,0.830039661505658
398.5,0.831926264735186
399,0.833754677571735
399.5,0.835524522758386
400,0.837235601941328
400.5,0.83888788456284
401,0.840481496457671
401.5,0.842016708293634
402,0.843493923983551
402.5,0.844913669181678
403,0.84627657996367
403.5,0.847583391775413
404,0.8488349287227
404.5,0.85003209326112
405,0.851175856333705
405.5,0.852267247992928
406,0.853307348533685
406.5,0.854297280154938
407,0.855238199159672
407.5,0.856131288695898
408,0.856977752035299
408.5,0.857778806381067
409,0.858535677192091
409.5,0.859249593007206
410,0.859921780750353
410.5,0.860553461495372
411,0.861145846667534
411.5,0.861700134657846
412,0.862217507825508
412.5,0.86269912986364
413,0.863146143503445
413.5,0.863559668532316
414,0.863940800101915
414.5,0.864290607302995
415,0.864610131984601
415.5,0.864900387796244
416,0.865162359432699
416.5,0.865397002062178
417,0.865605240919748
417.5,0.865787971049018
418,0.865946057176239
418.5,0.866080333702087
419,0.866191604797508
419.5,0.866280644591021
420,0.86634819743594
420.5,0.866394978246915
421,0.866421672896135
421.5,0.866428938660391
422,0.866417404711051
422.5,0.866387672639737
423,0.866340317013241
423.5,0.866275885951879
424,0.866194901726103
424.5,0.866097861366782
425,0.865985237285087
425.5,0.865857477898408
426,0.865715008259183
426.5,0.865558230683941
427,0.865387525380247
427.5,0.865203251069544
428,0.865005745604279
428.5,0.864795326577907
429,0.864572291926704
429.5,0.864336920522497
430,0.864089472755701
430.5,0.86383019110819
431,0.863559300715756
431.5,0.863277009920063
432,0.862983510810125
432.5,0.862678979753529
433,0.862363577917687
433.5,0.862037451781573
434,0.861700733638446
434.5,0.86135354209022
435,0.860995982534171
435.5,0.8606281476428
436,0.860250117837707
436.5,0.859861961758434
437,0.859463736727285
437.5,0.859055489211189
438,0.858637255281737
438.5,0.858209061074585
439,0.857770923249445
439.5,0.857322849451966
440,0.856864838778813
440.5,0.856396882247337
441,0.85591896327125
441.5,0.855431058143741
442,0.854933136529543
442.5,0.85442516196746
443,0.853907092384913
443.5,0.85337888062607
444,0.852840474995175
444.5,0.852291819816679
445,0.851732856013809
445.5,0.851163521707196
446,0.850583752835217
446.5,0.849993483797655
447,0.849392648124291
447.5,0.848781179170023
448,0.848159010838038
448.5,0.847526078332542
449,0.846882318942491
449.5,0.846227672857661
450,0.845562084018342
450.5,0.844885500999802
451,0.844197877932542
451.5,0.843499175459233
452,0.842789361729021
452.5,0.842068413429723
453,0.84133631685819
453.5,0.840593069028878
454,0.839838678820387
454.5,0.839073168159413
455,0.838296573241236
455.5,0.837508945785471
456,0.836710354325432
456.5,0.835900885528989
457,0.835080645548364
457.5,0.834249761395753
458,0.833408382341184
458.5,0.832556681328389
459,0.831694856403904
459.5,0.830823132153971
460,0.829941761143149
460.5,0.829051025347879
461,0.82815123757756
461.5,0.827242742874957
462,0.826325919887114
462.5,0.825401182197182
463,0.824468979606923
463.5,0.823529799358976
464,0.822584167287323
464.5,0.821632648883826
465,0.820675850268158
465.5,0.819714419047997
466,0.818749045055981
466.5,0.817780460949633
467,0.816809442660319
467.5,0.815836809677246
468,0.814863425152646
468.5,0.813890195814515
469,0.812918071673772
469.5,0.811948045513252
470,0.81098115214682
470.5,0.810018467437859
471,0.809061107067627
471.5,0.808110225045393
472,0.807167011953883
472.5,0.806232692925433
473,0.805308525346234
473.5,0.804395796288303
474,0.803495819671169
474.5,0.802609933157787
475,0.80173949479184
475.5,0.800885879386307
476,0.80005047467595
476.5,0.799234677249184
477,0.798439888277533
477.5,0.797667509063617
478,0.796918936431136
478.5,0.79619555798281
479,0.795498747254392
479.5,0.794829858794859
480,0.794190223204565
480.5,0.793581142164448
481,0.793003883490384
481.5,0.792459676247328
482,0.791949705958055
482.5,0.791475109941027
483,0.791036972811195
483.5,0.79063632217638
484,0.790274124560298
484.5,0.789951281581275
485,0.789668626413334
485.5,0.789426920553567
486,0.789226850916678
486.5,0.789069027274258
487,0.788953980052841
487.5,0.788882158501085
488,0.788853929232702
488.5,0.788869575147907
489,0.7889292947324
489.5,0.789033201729228
490,0.78918132517527
490.5,0.789373609790803
491,0.789609916707431
491.5,0.789890024516871
492,0.790213630620564
492.5,0.790580352857885
493,0.79098973138896
493.5,0.791441230806624
494,0.791934242451001
494.5,0.792468086899545
495,0.793042016605006
495.5,0.793655218653855
496,0.794306817618082
496.5,0.794995878473884
497,0.795721409561786
497.5,0.796482365563847
498,0.79727765047504
498.5,0.798106120547442
499,0.798966587187578
499.5,0.799857819789054
500,0.800778548484506
500.5,0.801727466802776
501,0.802703234219155
501.5,0.803704478588419
502,0.80472979845221
502.5,0.805777765214103
503,0.806846925177378
503.5,0.807935801442077
504,0.809042895659392
504.5,0.810166689642769
505,0.811305646836275
505.5,0.812458213641863
506,0.813622820608034
506.5,0.814797883483207
507,0.815981804137696
507.5,0.817172971358682
508,0.818369761522962
508.5,0.819570539152431
509,0.82077365735741
509.5,0.82197745817292
510,0.823180272792908
510.5,0.824380421707264
511,0.825576214746184
511.5,0.82676595103614
512,0.827947918871289
512.5,0.829120395503784
513,0.830281646855933
513.5,0.831429927156703
514,0.832563478504564
514.5,0.833680530358153
515,0.834779298955785
515.5,0.835857986664354
516,0.836914781257722
516.5,0.837947855124352
517,0.83895536440354
517.5,0.839935448049382
518,0.840886226821388
518.5,0.841805802200522
519,0.842692255229463
519.5,0.84354364527593
520,0.844358008718105
520.5,0.845133357551555
521,0.845867677917436
521.5,0.846558928552433
522,0.847205039161608
522.5,0.847803908716294
523,0.848353403680243
523.5,0.848851356168623
524,0.8492955620459
524.5,0.849683778970491
525,0.850013724395982
525.5,0.850283073541044
526,0.850489457342665
526.5,0.850630460410184
527,0.850703619000773
527.5,0.850706419040478
528,0.850636294218833
528.5,0.850490624189257
529,0.850266732912107
529.5,0.849961887182319
530,0.849573295389057
530.5,0.84909810656077
531,0.848533409755453
531.5,0.847876233862821
532,0.847123547892476
532.5,0.846272261829959
533,0.845319228150872
533.5,0.844261244091911
534,0.843095054786695
534.5,0.841817357383559
535,0.840424806271979
