"Freq [MHz]","mag(St(Rectangle3_T1,Rectangle3_T1)) []"
100,0.999219700636782
100.5,0.999210321985483
101,0.999200689143079
101.5,0.999190797573464
102,0.999180642663556
102.5,0.999170219721619
103,0.99915952397552
103.5,0.999148550570955
104,0.999137294569623
104.5,0.999125750947358
105,0.999113914592204
105.5,0.999101780302451
106,0.999089342784611
106.5,0.999076596651342
107,0.999063536419329
107.5,0.999050156507095
108,0.99903645123276
108.5,0.999022414811749
109,0.999008041354427
109.5,0.998993324863684
110,0.998978259232445
110.5,0.998962838241125
111,0.99894705555501
111.5,0.99893090472157
112,0.998914379167705
112.5,0.998897472196909
113,0.99888017698637
113.5,0.998862486583983
114,0.99884439390529
114.5,0.998825891730334
115,0.998806972700428
115.5,0.998787629314846
116,0.998767853927413
116.5,0.998747638743012
117,0.99872697581399
117.5,0.998705857036478
118,0.998684274146597
118.5,0.99866221871657
119,0.99863968215073
119.5,0.998616655681411
120,0.998593130364735
120.5,0.998569097076281
121,0.998544546506633
121.5,0.998519469156809
122,0.998493855333566
122.5,0.998467695144567
123,0.998440978493428
123.5,0.998413695074615
124,0.99838583436821
124.5,0.998357385634523
125,0.998328337908562
125.5,0.998298679994342
126,0.998268400459042
126.5,0.99823748762699
127,0.998205929573488
127.5,0.99817371411846
128,0.998140828819915
128.5,0.998107260967239
129,0.998072997574284
129.5,0.998038025372269
130,0.998002330802476
130.5,0.997965900008742
131,0.997928718829731
131.5,0.997890772790991
132,0.997852047096779
132.5,0.997812526621656
133,0.997772195901837
133.5,0.997731039126289
134,0.997689040127579
134.5,0.997646182372456
135,0.997602448952151
135.5,0.997557822572405
136,0.997512285543201
136.5,0.997465819768202
137,0.997418406733872
137.5,0.997370027498284
138,0.997320662679594
138.5,0.997270292444185
139,0.997218896494447
139.5,0.99716645405621
140,0.997112943865795
140.5,0.997058344156679
141,0.997002632645773
141.5,0.996945786519284
142,0.996887782418148
142.5,0.996828596423039
143,0.996768204038922
143.5,0.996706580179133
144,0.996643699148996
144.5,0.996579534628928
145,0.996514059657042
145.5,0.996447246611213
146,0.996379067190612
146.5,0.996309492396662
147,0.996238492513417
147.5,0.996166037087347
148,0.996092094906489
148.5,0.996016633978967
149,0.995939621510847
149.5,0.995861023883305
150,0.995780806629088
150.5,0.995698934408252
151,0.995615370983131
151.5,0.995530079192543
152,0.995443020925175
152.5,0.995354157092146
153,0.995263447598702
153.5,0.995170851315027
154,0.995076326046133
154.5,0.994979828500796
155,0.994881314259516
155.5,0.99478073774146
156,0.99467805217035
156.5,0.994573209539277
157,0.994466160574383
157.5,0.994356854697391
158,0.99424523998693
158.5,0.994131263138627
159,0.994014869423915
159.5,0.993896002647515
160,0.993774605103546
160.5,0.993650617530229
161,0.993523979063112
161.5,0.993394627186791
162,0.993262497685061
162.5,0.993127524589445
163,0.992989640126058
163.5,0.992848774660724
164,0.992704856642317
164.5,0.992557812544243
165,0.992407566804003
165.5,0.992254041760789
166,0.992097157591014
166.5,0.991936832241745
167,0.99177298136193
167.5,0.991605518231367
168,0.99143435368734
168.5,0.991259396048818
169,0.991080551038171
169.5,0.990897721700285
170,0.990710808319011
170.5,0.990519708330849
171,0.990324316235769
171.5,0.990124523505092
172,0.989920218486303
172.5,0.989711286304729
173,0.989497608761942
173.5,0.989279064230812
174,0.989055527547068
174.5,0.98882686989728
175,0.988592958703129
175.5,0.98835365750184
176,0.988108825822677
176.5,0.987858319059345
177,0.987601988338184
177.5,0.987339680382025
178,0.987071237369552
178.5,0.986796496790061
179,0.986515291293432
179.5,0.986227448535207
180,0.985932791016603
180.5,0.985631135919305
181,0.985322294934905
181.5,0.985006074088805
182,0.98468227355844
182.5,0.984350687485656
183,0.984011103783078
183.5,0.9836633039343
184,0.983307062787741
184.5,0.982942148343983
185,0.982568321536446
185.5,0.982185336005213
186,0.981792937863847
186.5,0.98139086545904
187,0.980978849122926
187.5,0.980556610917895
188,0.980123864373767
188.5,0.979680314217156
189,0.979225656092905
189.5,0.978759576277428
190,0.978281751383851
190.5,0.977791848058836
191,0.97728952267097
191.5,0.976774420990634
192,0.976246177861288
192.5,0.975704416862098
193,0.97514874996189
193.5,0.974578777164404
194,0.973994086144869
194.5,0.973394251877953
195,0.972778836257158
195.5,0.972147387705781
196,0.971499440779605
196.5,0.97083451576152
197,0.970152118248341
197.5,0.969451738730134
198,0.968732852162427
198.5,0.967994917531773
199,0.967237377415167
199.5,0.966459657533955
200,0.965661166302933
200.5,0.96484129437543
201,0.96399941418533
201.5,0.963134879487044
202,0.962247024894636
202.5,0.961335165421411
203,0.960398596021463
203.5,0.959436591134839
204,0.958448404238158
204.5,0.957433267402753
205,0.956390390862598
205.5,0.955318962594538
206,0.954218147913605
206.5,0.95308708908646
207,0.951924904966327
207.5,0.950730690653108
208,0.949503517182691
208.5,0.948242431249877
209,0.946946454969721
209.5,0.945614585682528
210,0.944245795808199
210.5,0.942839032756106
211,0.941393218897196
211.5,0.939907251605577
212,0.938380003377409
212.5,0.936810322035553
213,0.935197031029045
213.5,0.933538929837186
214,0.931834794488693
214.5,0.930083378207125
215,0.928283412194554
215.5,0.926433606566227
216,0.924532651449789
216.5,0.92257921826345
217,0.920571961188316
217.5,0.918509518850959
218,0.916390516233117
218.5,0.914213566826265
219,0.911977275049592
219.5,0.909680238950676
220,0.907321053208909
220.5,0.904898312462327
221,0.902410614979119
221.5,0.899856566695518
222,0.897234785642146
222.5,0.89454390678104
223,0.89178258727561
223.5,0.888949512215546
224,0.886043400818221
224.5,0.883063013127422
225,0.880007157229087
225.5,0.876874697002358
226,0.873664560422304
226.5,0.870375748428403
227,0.867007344369977
227.5,0.863558524036373
228,0.860028566275666
228.5,0.856416864200936
229,0.852722936977784
229.5,0.848946442180579
230,0.845087188697943
230.5,0.841145150160175
231,0.837120478852673
231.5,0.833013520069797
232,0.828824826853258
232.5,0.824555175047741
233,0.820205578594354
233.5,0.815777304969519
234,0.811271890663281
234.5,0.806691156576685
235,0.802037223203112
235.5,0.797312525443318
236,0.792519826888733
236.5,0.787662233392364
237,0.782743205731933
237.5,0.777766571155775
238,0.772736533589014
238.5,0.767657682265907
239,0.762534998544553
239.5,0.757373860652765
240,0.752180046109329
240.5,0.746959731563669
241,0.741719489799636
241.5,0.736466283656163
242,0.731207456629616
242.5,0.725950719940103
243,0.720704135867346
243.5,0.715476097191402
244,0.71027530260964
244.5,0.705110728044398
245,0.699991593805372
245.5,0.694927327627153
246,0.689927523664847
246.5,0.685001897598948
247,0.680160238073587
247.5,0.675412354768918
248,0.670768023487237
248.5,0.666236928711665
249,0.661828604174019
249.5,0.657552372042352
250,0.653417281406378
250.5,0.64943204679779
251,0.645604987529886
251.5,0.641943968674391
252,0.638456344510532
252.5,0.635148905280429
253,0.632027828064143
253.5,0.629098632546539
254,0.626366142386171
254.5,0.6238344528146
255,0.621506904994187
255.5,0.619386067546021
256,0.61747372553022
256.5,0.615770877022356
257,0.614277737286228
257.5,0.612993750399576
258,0.611917608049889
258.5,0.611047275086936
259,0.610380021301178
259.5,0.609912458795977
260,0.609640584239722
260.5,0.609559825223047
261,0.609665089907561
261.5,0.609950819135567
262,0.610411040174664
262.5,0.611039421294906
263,0.611829326417322
263.5,0.612773869128344
264,0.61386596542188
264.5,0.615098384606548
265,0.616463797896615
265.5,0.617954824288754
266,0.619564073410002
266.5,0.621284185103227
267,0.623107865592795
267.5,0.625027920143791
268,0.627037282191803
268.5,0.629129038976329
269,0.631296453759023
269.5,0.633532984748116
270,0.63583230088276
270.5,0.638188294656092
271,0.640595092174062
271.5,0.643047060659262
272,0.645538813615661
272.5,0.648065213872274
273,0.650621374721835
273.5,0.653202659365451
274,0.655804678866421
274.5,0.658423288806711
275,0.661054584828298
275.5,0.663694897229442
276,0.666340784773078
276.5,0.668989027851469
277,0.671636621138195
277.5,0.674280765845762
278,0.676918861694689
278.5,0.679548498688129
279,0.682167448774892
279.5,0.684773657473266
280,0.687365235518332
280.5,0.689940450586516
281,0.692497719142997
281.5,0.69503559845011
282,0.697552778768267
282.5,0.7000480757749
283,0.702520423221598
283.5,0.704968865844924
284,0.707392552542231
284.5,0.709790729820182
285,0.712162735520558
285.5,0.714507992825224
286,0.716826004539832
286.5,0.719116347653874
287,0.721378668173089
287.5,0.723612676218863
288,0.725818141388175
288.5,0.72799488836676
289,0.730142792787475
289.5,0.732261777325344
290,0.734351808020384
290.5,0.736412890819067
291,0.738445068325157
291.5,0.740448416750574
292,0.742423043057033
292.5,0.744369082279224
293,0.746286695020529
293.5,0.748176065112403
294,0.750037397428815
294.5,0.751870915847366
295,0.753676861349009
295.5,0.755455490248582
296,0.757207072548629
296.5,0.758931890409357
297,0.760630236727833
297.5,0.762302413819866
298,0.763948732198316
298.5,0.76556950944189
299,0.767165069148758
299.5,0.768735739969656
300,0.770281854715381
300.5,0.771803749533882
301,0.773301763152422
301.5,0.774776236180525
302,0.77622751046966
302.5,0.777655928525891
303,0.779061832971877
303.5,0.780445566054885
304,0.781807469197651
304.5,0.783147882589099
305,0.784467144812153
305.5,0.78576559250603
306,0.787043560060542
306.5,0.788301379340135
307,0.789539379435506
307.5,0.7907578864408
308,0.791957223254487
308.5,0.793137709402179
309,0.794299660879745
309.5,0.795443390015173
310,0.796569205347776
310.5,0.797677411523374
311,0.798768309204238
311.5,0.799842194992602
312,0.800899361366693
312.5,0.80194009662824
313,0.802964684860545
313.5,0.803973405896224
314,0.804966535293825
314.5,0.805944344322535
315,0.806907099954305
315.5,0.807855064862715
316,0.808788497427976
316.5,0.809707651747515
317,0.810612777651595
317.5,0.811504120723515
318,0.812381922323902
318.5,0.813246419618702
319,0.814097845610481
319.5,0.814936429172647
320,0.815762395086302
320.5,0.81657596407938
321,0.8173773528678
321.5,0.818166774198373
322,0.818944436893208
322.5,0.819710545895399
323,0.820465302315776
323.5,0.82120890348054
324,0.821941542979588
324.5,0.822663410715379
325,0.823374692952181
325.5,0.824075572365555
326,0.824766228091961
326.5,0.825446835778358
327,0.826117567631688
327.5,0.826778592468155
328,0.82743007576219
328.5,0.828072179695033
329,0.828705063202845
329.5,0.829328882024287
330,0.829943788747486
330.5,0.830549932856349
331,0.831147460776148
331.5,0.831736515918344
332,0.832317238724585
332.5,0.832889766709867
333,0.833454234504773
333.5,0.834010773896795
334,0.834559513870691
334.5,0.835100580647838
335,0.835634097724568
335.5,0.83616018590946
336,0.836678963359544
336.5,0.837190545615429
337,0.837695045635304
337.5,0.838192573827809
338,0.838683238083755
338.5,0.839167143806678
339,0.8396443939422
339.5,0.840115089006207
340,0.840579327111794
340.5,0.841037203995001
341,0.841488813039297
341.5,0.841934245298812
342,0.842373589520308
342.5,0.842806932163864
343,0.843234357422275
343.5,0.843655947239143
344,0.844071781325649
344.5,0.844481937176005
345,0.844886490081548
345.5,0.845285513143491
346,0.845679077284299
346.5,0.846067251257674
347,0.846450101657157
347.5,0.846827692923301
348,0.847200087349426
348.5,0.84756734508592
349,0.847929524143086
349.5,0.848286680392509
350,0.848638867566918
350.5,0.848986137258548
351,0.84932853891595
351.5,0.849666119839261
352,0.849998925173889
352.5,0.850326997902607
353,0.850650378836021
353.5,0.850969106601397
354,0.851283217629829
354.5,0.851592746141694
355,0.85189772413041
355.5,0.852198181344435
356,0.852494145267488
356.5,0.852785641096974
357,0.853072691720571
357.5,0.853355317690943
358,0.853633537198557
358.5,0.853907366042566
359,0.854176817599712
359.5,0.854441902791223
360,0.854702630047664
360.5,0.854959005271684
361,0.85521103179864
361.5,0.855458710355033
362,0.855702039014719
362.5,0.855941013152838
363,0.856175625397418
363.5,0.856405865578583
364,0.856631720675326
364.5,0.856853174759772
365,0.857070208938867
365.5,0.85728280129344
366,0.857490926814546
366.5,0.857694557337028
367,0.857893661470226
367.5,0.858088204525728
368,0.858278148442102
368.5,0.858463451706508
369,0.858644069273093
369.5,0.858819952478086
370,0.858991048951483
370.5,0.859157302525229
371,0.859318653137791
371.5,0.859475036735027
372,0.859626385167244
372.5,0.859772626082355
373,0.859913682815042
373.5,0.860049474271849
374,0.86017991481212
374.5,0.860304914124754
375,0.860424377100716
375.5,0.860538203701322
376,0.860646288822313
376.5,0.860748522153789
377,0.860844788036121
377.5,0.860934965312028
378,0.861018927175067
378.5,0.861096541014873
379,0.861167668259597
379.5,0.861232164216098
380,0.861289877908591
380.5,0.861340651916609
381,0.861384322213324
381.5,0.86142071800548
382,0.861449661576426
382.5,0.861470968134012
383,0.861484445665412
383.5,0.861489894801267
384,0.861487108691913
384.5,0.861475872898886
385,0.861455965305327
385.5,0.861427156049401
386,0.861389207485387
386.5,0.861341874177632
387,0.861284902933214
387.5,0.86121803287972
388,0.861140995595288
388.5,0.861053515298676
389,0.860955309107865
389.5,0.860846087376367
390,0.860725554117136
390.5,0.860593407524606
391,0.860449340606018
391.5,0.860293041933786
392,0.860124196531075
392.5,0.859942486903156
393,0.859747594227352
393.5,0.859539199714349
394,0.859316986153607
394.5,0.859080639655074
395,0.858829851598822
395.5,0.858564320803123
396,0.858283755920002
396.5,0.857987878066358
397,0.857676423693991
397.5,0.85734914770341
398,0.857005826798456
398.5,0.856646263078129
399,0.85627028785636
399.5,0.855877765695827
400,0.855468598636482
400.5,0.855042730593435
401,0.854600151892474
401.5,0.854140903904585
402,0.853665083733795
402.5,0.853172848905346
403,0.852664421993888
403.5,0.85214009512433
404,0.851600234271251
404.5,0.851045283276699
405,0.850475767501087
405.5,0.849892297017925
406,0.849295569260656
406.5,0.848686371029196
407,0.848065579765112
407.5,0.847434164008095
408,0.846793182952479
408.5,0.846143785031468
409,0.845487205468205
409.5,0.844824762747083
410,0.844157853975498
410.5,0.843487949125382
411,0.842816584164959
411.5,0.842145353113821
412,0.841475899077974
412.5,0.840809904345357
413,0.840149079645733
413.5,0.839495152700989
414,0.838849856212018
414.5,0.838214915445671
415,0.837592035599138
415.5,0.836982889128849
416,0.836389103236195
416.5,0.835812247702732
417,0.835253823262865
417.5,0.834715250692521
418,0.834197860778071
418.5,0.833702885311474
419,0.833231449235565
419.5,0.832784564038691
420,0.832363122471021
420.5,0.831967894626999
421,0.831599525410286
421.5,0.831258533370048
422,0.830945310871609
422.5,0.830660125540663
423,0.830403122899336
423.5,0.830174330094714
424,0.829973660606243
424.5,0.829800919807969
425,0.82965581125478
425.5,0.829537943558564
426,0.829446837720291
426.5,0.82938193478711
427,0.829342603709185
427.5,0.829328149278903
428,0.829337820044545
428.5,0.829370816101429
429,0.829426296675073
429.5,0.82950338742305
430,0.82960118739431
430.5,0.82971877559661
431,0.829855217134064
431.5,0.830009568887495
432,0.830180884720014
432.5,0.830368220199116
433,0.830570636834319
433.5,0.830787205836116
434,0.831017011407677
434.5,0.831259153585402
435,0.83151275064813
435.5,0.83177694111762
436,0.832050885374944
436.5,0.832333766918719
437,0.832624793291763
437.5,0.832923196702887
438,0.833228234370187
438.5,0.833539188611484
439,0.833855366706525
439.5,0.834176100554307
440,0.834500746147411
440.5,0.834828682883678
441,0.835159312733884
441.5,0.835492059282356
442,0.835826366655744
442.5,0.836161698353446
443,0.836497535991482
443.5,0.836833377969957
444,0.837168738072657
444.5,0.837503144005788
445,0.837836135881351
445.5,0.838167264649286
446,0.838496090481106
446.5,0.838822181106487
447,0.839145110103005
447.5,0.83946445513806
448,0.839779796160816
448.5,0.840090713540933
449,0.84039678614973
449.5,0.840697589378363
450,0.840992693086554
450.5,0.84128165947432
451,0.841564040868127
451.5,0.841839377411774
452,0.842107194651253
452.5,0.842367001001696
453,0.842618285083355
453.5,0.842860512912393
454,0.843093124931006
454.5,0.84331553286017
455,0.843527116356951
455.5,0.843727219457012
456,0.843915146781575
456.5,0.844090159486722
457,0.844251470931546
457.5,0.844398242040359
458,0.84452957633288
458.5,0.844644514595228
459,0.84474202916359
459.5,0.844821017791779
460,0.844880297073624
460.5,0.844918595391332
461,0.844934545361942
461.5,0.844926675755732
462,0.844893402863467
462.5,0.844833021293788
463,0.844743694188371
463.5,0.84462344285116
464,0.844470135799578
464.5,0.84428147726087
465,0.844054995156456
465.5,0.843788028642345
466,0.843477715305559
466.5,0.843120978156293
467,0.842714512605065
467.5,0.842254773674844
468,0.84173796377238
468.5,0.841160021432581
469,0.840516611557258
469.5,0.83980311779704
470,0.839014637874867
470.5,0.838145982822917
471,0.837191681302934
471.5,0.836145990402381
472,0.835002914543245
472.5,0.833756234401413
473,0.832399548003321
473.5,0.830926326428344
474,0.829329986779115
474.5,0.827603985257518
475,0.825741933261739
475.5,0.823737739347836
476,0.821585779614418
476.5,0.819281098496536
477,0.816819641011996
477.5,0.814198516105447
478,0.811416288806643
478.5,0.808473296407413
479,0.80537198076026
479.5,0.802117225173926
480,0.798716680390388
480.5,0.795181060059828
481,0.791524382412126
481.5,0.787764132018161
482,0.783921314309144
482.5,0.780020376576912
483,0.776088973132734
483.5,0.772157559551527
484,0.768258811482808
484.5,0.764426876861206
485,0.76069648540376
485.5,0.757101954403696
486,0.753676143026606
486.5,0.75044941654133
487,0.747448685470242
487.5,0.744696581537191
488,0.742210822530027
488.5,0.740003802844343
489,0.738082427504173
489.5,0.736448187372518
490,0.73509745464263
490.5,0.734021962710293
491,0.733209424588913
491.5,0.732644239660867
492,0.732308239420915
492.5,0.732181427969144
493,0.732242680994335
493.5,0.732470376419709
494,0.732842939483005
494.5,0.733339293812286
495,0.733939217411279
495.5,0.734623608091263
496,0.735374666759235
496.5,0.736176009260428
497,0.737012718450431
497.5,0.737871348150472
498,0.738739889922451
498.5,0.739607712453733
499,0.740465481978907
499.5,0.7413050707462
500,0.742119459169461
500.5,0.742902636060594
501,0.743649500247889
501.5,0.744355765965242
502,0.745017873642452
502.5,0.745632907124756
503,0.746198517882495
503.5,0.746712856419234
504,0.747174510829256
504.5,0.747582452274568
505,0.747935987031397
505.5,0.748234714682611
506,0.748478491994111
506.5,0.748667402000607
507,0.748801727831812
507.5,0.748881930828173
508,0.748908632521264
508.5,0.748882600084537
509,0.748804734892787
509.5,0.748676063861565
510,0.748497733269674
510.5,0.748271004797877
511,0.747997253544509
511.5,0.747677967803469
512,0.747314750411864
512.5,0.746909321493364
513,0.746463522439016
513.5,0.745979320980062
514,0.745458817217052
514.5,0.744904250476606
515,0.744318006871383
515.5,0.743702627440508
516,0.743060816746786
516.5,0.742395451803734
517,0.741709591199833
517.5,0.741006484279568
518,0.740289580230915
518.5,0.739562536917123
519,0.738829229277042
519.5,0.738093757103211
520,0.737360451990551
520.5,0.736633883231294
521,0.735918862414012
521.5,0.735220446466838
522,0.734543938867707
522.5,0.733894888728435
523,0.733279087445343
523.5,0.732702562597947
524,0.732171568769753
524.5,0.731692574962638
525,0.731272248279642
525.5,0.730917433561492
526,0.730635128680922
526.5,0.730432455227019
527,0.730316624350359
527.5,0.730294897589606
528,0.730374542561945
528.5,0.730562783473746
529,0.73086674649398
529.5,0.731293400130636
530,0.731849490858656
530.5,0.732541474364998
531,0.733375442900134
531.5,0.734357049352641
532,0.735491428791121
532.5,0.736783118341556
533,0.738235976383992
533.5,0.739853102155737
534,0.74163675693444
534.5,0.743588288039293
535,0.74570805692834
