"Freq [MHz]","mag(St(Rectangle3_T1,Rectangle3_T1)) []"
100,0.994840737419842
100.5,0.994846096907124
101,0.994851053511125
101.5,0.994855613015641
102,0.994859781090033
102.5,0.994863563292053
103,0.99486696507061
103.5,0.994869991768447
104,0.994872648624752
104.5,0.99487494077771
105,0.994876873266974
105.5,0.994878451036081
106,0.994879678934805
106.5,0.994880561721443
107,0.994881104065051
107.5,0.994881310547612
108,0.994881185666156
108.5,0.994880733834828
109,0.994879959386892
109.5,0.994878866576698
110,0.994877459581587
110.5,0.99487574250376
111,0.994873719372089
111.5,0.994871394143889
112,0.994868770706647
112.5,0.994865852879703
113,0.994862644415894
113.5,0.994859149003156
114,0.994855370266088
114.5,0.994851311767472
115,0.99484697700977
115.5,0.994842369436567
116,0.994837492433996
116.5,0.994832349332114
117,0.994826943406261
117.5,0.994821277878371
118,0.994815355918266
118.5,0.994809180644911
119,0.994802755127643
119.5,0.99479608238737
120,0.994789165397747
120.5,0.99478200708632
121,0.994774610335647
121.5,0.994766977984391
122,0.994759112828393
122.5,0.994751017621718
123,0.994742695077678
123.5,0.994734147869835
124,0.99472537863298
124.5,0.99471638996409
125,0.994707184423271
125.5,0.994697764534671
126,0.994688132787383
126.5,0.994678291636325
127,0.994668243503101
127.5,0.99465799077685
128,0.994647535815068
128.5,0.994636880944427
129,0.994626028461565
129.5,0.99461498063387
130,0.994603739700242
130.5,0.994592307871848
131,0.994580687332856
131.5,0.99456888024116
132,0.994556888729088
132.5,0.994544714904103
133,0.994532360849487
133.5,0.994519828625013
134,0.994507120267607
134.5,0.994494237792005
135,0.994481183191384
135.5,0.994467958438001
136,0.994454565483807
136.5,0.994441006261062
137,0.994427282682937
137.5,0.994413396644101
138,0.994399350021314
138.5,0.994385144673998
139,0.994370782444806
139.5,0.994356265160188
140,0.994341594630938
140.5,0.994326772652749
141,0.994311801006748
141.5,0.994296681460035
142,0.994281415766212
142.5,0.994266005665905
143,0.994250452887283
143.5,0.994234759146574
144,0.994218926148571
144.5,0.99420295558714
145,0.994186849145721
145.5,0.994170608497823
146,0.994154235307518
146.5,0.994137731229937
147,0.994121097911752
147.5,0.994104336991666
148,0.994087450100895
148.5,0.994070438863651
149,0.994053304897621
149.5,0.994036049814446
150,0.994018675220201
150.5,0.994001182715869
151,0.993983573897821
151.5,0.993965850358291
152,0.993948013685855
152.5,0.993930065465906
153,0.993912007281134
153.5,0.993893840712005
154,0.993875567337246
154.5,0.993857188734321
155,0.993838706479921
155.5,0.993820122150449
156,0.993801437322512
156.5,0.993782653573415
157,0.993763772481654
157.5,0.99374479562742
158,0.993725724593105
158.5,0.993706560963806
159,0.993687306327845
159.5,0.993667962277283
160,0.993648530408452
160.5,0.99362901232248
161,0.993609409625831
161.5,0.993589723930851
162,0.993569956856317
162.5,0.993550110028
163,0.993530185079228
163.5,0.993510183651467
164,0.993490107394906
164.5,0.993469957969048
165,0.993449737043319
165.5,0.993429446297684
166,0.993409087423269
166.5,0.993388662123006
167,0.993368172112279
167.5,0.99334761911959
168,0.993327004887231
168.5,0.993306331171982
169,0.993285599745811
169.5,0.993264812396594
170,0.993243970928856
170.5,0.993223077164519
171,0.993202132943676
171.5,0.993181140125373
172,0.993160100588425
172.5,0.993139016232235
173,0.993117888977645
173.5,0.993096720767799
174,0.993075513569039
174.5,0.993054269371815
175,0.993032990191621
175.5,0.993011678069957
176,0.992990335075318
176.5,0.992968963304205
177,0.99294756488217
177.5,0.992926141964886
178,0.992904696739245
178.5,0.992883231424495
179,0.992861748273401
179.5,0.992840249573445
180,0.99281873764806
180.5,0.992797214857896
181,0.992775683602132
181.5,0.99275414631982
182,0.992732605491269
182.5,0.992711063639481
183,0.992689523331619
183.5,0.992667987180525
184,0.992646457846288
184.5,0.992624938037856
185,0.992603430514699
185.5,0.992581938088531
186,0.992560463625075
186.5,0.992539010045895
187,0.992517580330277
187.5,0.992496177517181
188,0.992474804707244
188.5,0.992453465064859
189,0.992432161820306
189.5,0.992410898271971
190,0.992389677788623
190.5,0.992368503811765
191,0.992347379858072
191.5,0.992326309521899
192,0.99230529647787
192.5,0.992284344483556
193,0.992263457382239
193.5,0.992242639105762
194,0.99222189367747
194.5,0.992201225215256
195,0.992180637934688
195.5,0.992160136152251
196,0.992139724288678
196.5,0.992119406872398
197,0.992099188543081
197.5,0.992079074055301
198,0.992059068282303
198.5,0.992039176219886
199,0.992019402990405
199.5,0.991999753846884
200,0.991980234177251
200.5,0.991960849508684
201,0.991941605512087
201.5,0.991922508006674
202,0.991903562964676
202.5,0.991884776516158
203,0.991866154953957
203.5,0.991847704738722
204,0.991829432504059
204.5,0.991811345061781
205,0.99179344940724
205.5,0.991775752724746
206,0.991758262393055
206.5,0.991740985990906
207,0.99172393130261
207.5,0.991707106323643
208,0.991690519266248
208.5,0.991674178564996
209,0.991658092882287
209.5,0.991642271113749
210,0.991626722393491
210.5,0.99161145609916
211,0.991596481856741
211.5,0.991581809545032
212,0.99156744929972
212.5,0.991553411516957
213,0.991539706856336
213.5,0.991526346243146
214,0.991513340869767
214.5,0.991500702196029
215,0.991488441948375
215.5,0.991476572117579
216,0.991465104954807
216.5,0.991454052965711
217,0.991443428902229
217.5,0.991433245751733
218,0.991423516723053
218.5,0.991414255228914
219,0.991405474864167
219.5,0.991397189379162
220,0.991389412647489
220.5,0.991382158627165
221,0.99137544131426
221.5,0.991369274687719
222,0.99136367264401
222.5,0.991358648919955
223,0.991354217001855
223.5,0.991350390018712
224,0.991347180616982
224.5,0.991344600813844
225,0.991342661825516
225.5,0.991341373866472
226,0.991340745914785
226.5,0.991340785437911
227,0.991341498072285
227.5,0.991342887248856
228,0.99134495375532
228.5,0.991347695224051
229,0.991351105532726
229.5,0.991355174102172
230,0.991359885072995
230.5,0.991365216338964
231,0.991371138410809
231.5,0.991377613078763
232,0.991384591835796
232.5,0.991392014015575
233,0.991399804589534
233.5,0.991407871555555
234,0.991416102836057
234.5,0.991424362585103
235,0.991432486781443
235.5,0.991440277956188
236,0.991447498868287
236.5,0.991453864896414
237,0.991459034859425
237.5,0.991462599905993
238,0.99146407002276
238.5,0.991462857593472
239,0.991458257291184
239.5,0.991449421391232
240,0.99143532934006
240.5,0.991414750085211
241,0.991386195238968
241.5,0.991347860577183
242,0.991297552617845
242.5,0.991232596015132
243,0.991149716153742
243.5,0.991044889510674
244,0.990913151895813
244.5,0.990748351352799
245,0.990542827975288
245.5,0.990286996734845
246,0.989968801048285
246.5,0.98957299349821
247,0.989080184988573
247.5,0.988465583790465
248,0.987697320931453
248.5,0.986734229137515
249,0.985522913777222
249.5,0.983993939796946
250,0.982056992661003
250.5,0.979595031357701
251,0.976457902152976
251.5,0.972456947611691
252,0.967364399876021
252.5,0.960925598021671
253,0.952898792607707
253.5,0.943144373415167
254,0.931782558478099
254.5,0.91940168673001
255,0.907204673546148
255.5,0.896878024654557
256,0.890047306448421
256.5,0.887565129423583
257,0.889178954288119
257.5,0.893823131335801
258,0.900205339165709
258.5,0.907244685244473
259,0.914222013436321
259.5,0.920741410247879
260,0.92663079138326
260.5,0.931850647907687
261,0.936430437230815
261.5,0.940430103677396
262,0.943918941580261
262.5,0.946964978578814
263,0.949630258393181
263.5,0.951969234737753
264,0.95402870125528
264.5,0.955848407992659
265,0.957461925303984
265.5,0.958897539798151
266,0.960179085345904
266.5,0.961326672840884
267,0.962357312150015
267.5,0.963285433190269
268,0.964123318268425
268.5,0.964881458941425
269,0.965568849908999
269.5,0.966193230968855
270,0.96676128640598
270.5,0.967278809608965
271,0.967750839311126
271.5,0.968181772669495
272,0.968575459412063
272.5,0.968935280479891
273,0.969264213938859
273.5,0.969564890409841
274,0.969839639842596
274.5,0.970090531118128
275,0.970319405690188
275.5,0.970527906255894
276,0.970717501267265
276.5,0.970889505951475
277,0.97104510039078
277.5,0.971185345118196
278,0.97131119460756
278.5,0.971423508973359
279,0.971523064143784
279.5,0.971610560727814
280,0.971686631761868
280.5,0.971751849492457
281,0.971806731327022
281.5,0.971851745065059
282,0.971887313504736
282.5,0.971913818506198
283,0.971931604580848
283.5,0.971940982065998
284,0.971942229935806
284.5,0.971935598292328
285,0.971921310574449
285.5,0.971899565517294
286,0.97187053889033
286.5,0.971834385038602
287,0.971791238248305
287.5,0.971741213955111
288,0.971684409811286
288.5,0.971620906625515
289,0.971550769187591
289.5,0.971474046988518
290,0.971390774845229
290.5,0.971300973437891
291,0.971204649766746
291.5,0.971101797534466
292,0.970992397459194
292.5,0.970876417522697
293,0.970753813157396
293.5,0.970624527375438
294,0.970488490842447
294.5,0.970345621898077
295,0.970195826525068
295.5,0.97003899826804
296,0.969875018102917
296.5,0.969703754257461
297,0.969525061983059
297.5,0.969338783277569
298,0.969144746558666
298.5,0.968942766286853
299,0.968732642536908
299.5,0.968514160516269
300,0.968287090028478
300.5,0.968051184879484
301,0.967806182224242
301.5,0.967551801850663
302,0.967287745397592
302.5,0.967013695503061
303,0.966729314878644
303.5,0.966434245305235
304,0.966128106545094
304.5,0.965810495164445
305,0.9654809832603
305.5,0.965139117084578
306,0.964784415557848
306.5,0.964416368664269
307,0.964034435718492
307.5,0.963638043494306
308,0.963226584203886
308.5,0.962799413315309
309,0.962355847194858
309.5,0.961895160559226
310,0.961416583721292
310.5,0.960919299611484
311,0.960402440554913
311.5,0.959865084782488
312,0.959306252651956
312.5,0.958724902552356
313,0.958119926462629
313.5,0.957490145132077
314,0.956834302846935
314.5,0.956151061743585
315,0.955438995624691
315.5,0.954696583229827
316,0.953922200906954
316.5,0.953114114625184
317,0.952270471262788
317.5,0.951389289096977
318,0.950468447413875
318.5,0.949505675147833
319,0.948498538448966
319.5,0.947444427066255
320,0.946340539420563
320.5,0.945183866227409
321,0.943971172513018
321.5,0.942698977848824
322,0.941363534609084
322.5,0.939960804033112
323,0.938486429847783
323.5,0.936935709176832
324,0.9353035604309
324.5,0.933584487835732
325,0.931772542215052
325.5,0.929861277598969
326,0.927843703177819
326.5,0.925712230064665
327,0.923458612266871
327.5,0.921073881197699
328,0.918548272982646
328.5,0.915871147731878
329,0.913030899859942
329.5,0.910014858437194
330,0.906809176455213
330.5,0.903398707782536
331,0.89976687048006
331.5,0.895895495041779
332,0.891764656032168
332.5,0.887352485515478
333,0.882634966626877
333.5,0.877585705638025
334,0.872175680943921
334.5,0.866372967575613
335,0.860142436167409
335.5,0.85344542583414
336,0.846239391218167
336.5,0.838477525143469
337,0.830108359988751
337.5,0.821075353218745
338,0.811316465685809
338.5,0.800763745566693
339,0.789342936407467
339.5,0.776973135025122
340,0.763566534289926
340.5,0.749028297410954
341,0.733256624527163
341.5,0.716143089278598
342,0.697573342439938
342.5,0.677428301063591
343,0.655585963741531
343.5,0.631924013704543
344,0.606323389100317
344.5,0.578673011531602
345,0.548875869197611
345.5,0.516856655101628
346,0.482571184092561
346.5,0.446017910119912
347,0.407252172055001
347.5,0.366404638622134
348,0.323707615662796
348.5,0.279538611941632
349,0.234506268601104
349.5,0.189650095632182
350,0.146970790697496
350.5,0.110911772917497
351,0.0912122037401245
351.5,0.0986243925304446
352,0.128110274651221
352.5,0.167613707320484
353,0.21058108052521
353.5,0.254205841719228
354,0.297165384798192
354.5,0.338753552414738
355,0.378564923523047
355.5,0.41636603032191
356,0.452034264712704
356.5,0.4855239003759
357,0.516844301712856
357.5,0.546044416662534
358,0.573201051987663
358.5,0.598409772046876
359,0.621777805628519
359.5,0.643418570154032
360,0.663447520818161
360.5,0.681979082541901
361,0.699124456298097
361.5,0.714990119896213
362,0.729676870024627
362.5,0.743279277574052
363,0.755885451481864
363.5,0.767577027013292
364,0.778429312243277
364.5,0.788511541494558
365,0.797887196787978
365.5,0.80661436825138
366,0.814746132246224
366.5,0.822330932044842
367,0.829412950543599
367.5,0.83603246800945
368,0.842226200470137
368.5,0.848027616271086
369,0.853467229697049
369.5,0.858572871523162
370,0.863369937020123
370.5,0.867881612370748
371,0.872129080721072
371.5,0.876131709234822
372,0.87990721858035
372.5,0.883471836280182
373,0.88684043531459
373.5,0.890026659306096
374,0.893043035532047
374.5,0.895901076924459
375,0.898611374125581
375.5,0.901183678577518
376,0.903626977537014
376.5,0.905949561823882
377,0.908159087034099
377.5,0.910262628876961
378,0.912266733229857
378.5,0.914177461444149
379,0.916000431381114
379.5,0.917740854607536
380,0.919403570136082
380.5,0.920993075055553
381,0.922513552360235
381.5,0.923968896255335
382,0.925362735186709
382.5,0.926698452817321
383,0.92797920714981
383.5,0.92920794797399
384,0.930387432799699
384.5,0.931520241419027
385,0.932608789227244
385.5,0.933655339418678
386,0.934662014162075
386.5,0.935630804849504
387,0.936563581503511
387.5,0.937462101418863
388,0.938328017107712
388.5,0.939162883610319
389,0.939968165227432
389.5,0.94074524172506
390,0.9414954140575
390.5,0.94221990965017
391,0.942919887279861
391.5,0.943596441586547
392,0.944250607247701
392.5,0.944883362843241
393,0.945495634436652
393.5,0.946088298895549
394,0.946662186972809
394.5,0.947218086167583
395,0.947756743383724
395.5,0.948278867401691
396,0.948785131178556
396.5,0.949276173989495
397,0.949752603422988
397.5,0.950214997240929
398,0.950663905113898
398.5,0.951099850240974
399,0.95152333086273
399.5,0.951934821675287
400,0.952334775152716
400.5,0.952723622784436
401,0.953101776233771
401.5,0.953469628423288
402,0.953827554552137
402.5,0.954175913050173
403,0.954515046473287
403.5,0.954845282344022
404,0.955166933941232
404.5,0.955480301042268
405,0.955785670620916
405.5,0.956083317504038
406,0.956373504989687
406.5,0.956656485429241
407,0.956932500775917
407.5,0.957201783101854
408,0.957464555085799
408.5,0.957721030473284
409,0.957971414511045
409.5,0.958215904357306
410,0.958454689469447
410.5,0.95868795197047
411,0.958915866995558
411.5,0.959138603019961
412,0.959356322169347
412.5,0.959569180513665
413,0.959777328345524
413.5,0.959980910444006
414,0.96018006632477
414.5,0.960374930477258
415,0.960565632589751
415.5,0.960752297762988
416,0.960935046712986
416.5,0.961113995963701
417,0.961289258030088
417.5,0.961460941592111
418,0.961629151660201
418.5,0.961793989732647
419,0.961955553945349
419.5,0.962113939214371
420,0.962269237371669
420.5,0.962421537294367
421,0.962570925027937
421.5,0.962717483903589
422,0.962861294650197
422.5,0.963002435501028
423,0.963140982295571
423.5,0.963277008576687
424,0.963410585683353
424.5,0.963541782839206
425,0.9636706672371
425.5,0.963797304119893
426,0.96392175685763
426.5,0.964044087021324
427,0.964164354453489
427.5,0.964282617335579
428,0.964398932252508
428.5,0.964513354254364
429,0.964625936915475
429.5,0.96473673239093
430,0.964845791470702
430.5,0.964953163631462
431,0.965058897086211
431.5,0.965163038831811
432,0.965265634694533
432.5,0.9653667293737
433,0.965466366483508
433.5,0.965564588593118
434,0.965661437265093
434.5,0.965756953092239
435,0.965851175732949
435.5,0.965944143945081
436,0.966035895618462
436.5,0.96612646780606
437,0.966215896753882
437.5,0.966304217929661
438,0.96639146605037
438.5,0.966477675108621
439,0.966562878397985
439.5,0.966647108537285
440,0.966730397493896
440.5,0.966812776606096
441,0.966894276604501
441.5,0.966974927632618
442,0.967054759266555
442.5,0.967133800533912
443,0.967212079931886
443.5,0.967289625444618
444,0.967366464559807
444.5,0.967442624284621
445,0.96751813116092
445.5,0.967593011279816
446,0.967667290295602
446.5,0.96774099343905
447,0.967814145530115
447.5,0.967886770990049
448,0.96795889385295
448.5,0.968030537776757
449,0.968101726053706
449.5,0.968172481620263
450,0.968242827066538
450.5,0.968312784645203
451,0.968382376279914
451.5,0.968451623573255
452,0.968520547814202
452.5,0.968589169985125
453,0.968657510768333
453.5,0.968725590552161
454,0.968793429436607
454.5,0.968861047238534
455,0.96892846349642
455.5,0.968995697474682
456,0.969062768167549
456.5,0.969129694302514
457,0.969196494343344
457.5,0.969263186492651
458,0.969329788694036
458.5,0.969396318633778
459,0.969462793742091
459.5,0.969529231193933
460,0.969595647909355
460.5,0.969662060553401
461,0.969728485535531
461.5,0.96979493900858
462,0.969861436867232
462.5,0.969927994745997
463,0.969994628016693
463.5,0.9700613517854
464,0.970128180888901
464.5,0.970195129890563
465,0.97026221307567
465.5,0.970329444446182
466,0.970396837714886
466.5,0.970464406298948
467,0.970532163312825
467.5,0.970600121560514
468,0.970668293527134
468.5,0.97073669136978
469,0.970805326907661
469.5,0.97087421161147
470,0.970943356591948
470.5,0.971012772587633
471,0.97108246995174
471.5,0.971152458638138
472,0.971222748186392
472.5,0.971293347705817
473,0.971364265858505
473.5,0.971435510841281
474,0.971507090366526
474.5,0.971579011641829
475,0.971651281348401
475.5,0.971723905618187
476,0.971796890009632
476.5,0.971870239482005
477,0.971943958368242
477.5,0.972018050346204
478,0.972092518408283
478.5,0.972167364829283
479,0.972242591132454
479.5,0.972318198053621
480,0.97239418550328
480.5,0.972470552526568
481,0.972547297260996
481.5,0.972624416891803
482,0.972701907604847
482.5,0.972779764536845
483,0.972857981722872
483.5,0.972936552040926
484,0.973015467153426
484.5,0.973094717445458
485,0.973174291959601
485.5,0.973254178327131
486,0.973334362695408
486.5,0.973414829651225
487,0.973495562139901
487.5,0.973576541379862
488,0.973657746772472
488.5,0.973739155806811
489,0.973820743959152
489.5,0.973902484586788
490,0.973984348815908
490.5,0.974066305423171
491,0.974148320710588
491.5,0.974230358373362
492,0.97431237936021
492.5,0.974394341725785
493,0.974476200474669
493.5,0.97455790739648
494,0.974639410891524
494.5,0.97472065578644
495,0.974801583139229
495.5,0.974882130033014
496,0.974962229357848
496.5,0.975041809579831
497,0.975120794496766
497.5,0.975199102979498
498,0.97527664869807
498.5,0.975353339831734
499,0.975429078761801
499.5,0.975503761746272
500,0.975577278575068
500.5,0.97564951220465
501,0.975720338370705
501.5,0.975789625177503
502,0.975857232662411
502.5,0.975923012333979
503,0.975986806681878
503.5,0.976048448656849
504,0.976107761118734
504.5,0.976164556250465
505,0.976218634935794
505.5,0.976269786098357
506,0.97631778599952
506.5,0.97636239749226
507,0.976403369228138
507.5,0.976440434814237
508,0.976473311916692
508.5,0.97650170130721
509,0.976525285848722
509.5,0.97654372941604
510,0.976556675747089
510.5,0.976563747219965
511,0.976564543550762
511.5,0.976558640406701
512,0.976545587928749
512.5,0.976524909157473
513,0.976496098355445
513.5,0.976458619219024
514,0.976411902971847
514.5,0.976355346331801
515,0.976288309342669
515.5,0.976210113061038
516,0.976120037088367
516.5,0.976017316937432
517,0.975901141221604
517.5,0.975770648654602
518,0.975624924847566
518.5,0.975462998889316
519,0.975283839694817
519.5,0.975086352105778
520,0.974869372726311
520.5,0.974631665475478
521,0.974371916837364
521.5,0.974088730788152
522,0.973780623378417
522.5,0.97344601694757
523,0.973083233946093
523.5,0.972690490339859
524,0.972265888569506
524.5,0.971807410036504
525,0.971312907086275
525.5,0.970780094457464
526,0.97020654016535
526.5,0.969589655786342
527,0.968926686109683
527.5,0.968214698121884
528,0.967450569289084
528.5,0.966630975102676
529,0.965752375854061
529.5,0.964811002605594
530,0.963802842326715
530.5,0.962723622167049
531,0.961568792842219
531.5,0.960333511113297
532,0.95901262134767
532.5,0.957600636157706
533,0.956091716124553
533.5,0.954479648627808
534,0.952757825818367
534.5,0.950919221791795
535,0.948956369043713
